# t (s)	mx ()	my ()	mz ()	m.region1x ()	m.region1y ()	m.region1z ()	m.region2x ()	m.region2y ()	m.region2z ()
0	0.9967478	5.541369e-09	0	0.9967478	-1.527369e-08	0	0.9967477	2.6565976e-08	0
2.012821493062647e-12	0.9760418	0.11160456	-0.16916345	0.9760418	0.111604534	-0.16916345	0.9760418	0.111604586	-0.16916345
3.276150315833734e-12	0.9380945	0.2183053	-0.2576167	0.9380945	0.2183053	-0.2576167	0.9380945	0.2183053	-0.25761667
4.611833216310791e-12	0.87319213	0.35135794	-0.3292657	0.8731922	0.35135794	-0.3292657	0.8731922	0.351358	-0.32926568
6.01790455431009e-12	0.7765378	0.500599	-0.37519503	0.7765378	0.50059897	-0.37519503	0.7765377	0.500599	-0.375195
7.389287086177714e-12	0.657879	0.64102954	-0.3876916	0.657879	0.64102954	-0.38769162	0.657879	0.6410296	-0.3876916
8.665128731253548e-12	0.53318924	0.7563152	-0.37013832	0.53318924	0.75631523	-0.37013832	0.53318924	0.7563152	-0.37013835
9.912893622907388e-12	0.40730748	0.8481085	-0.32726383	0.40730748	0.8481085	-0.32726383	0.40730748	0.8481084	-0.32726377
1.1188556780425992e-11	0.28509575	0.9176196	-0.26030648	0.28509575	0.9176196	-0.2603065	0.28509578	0.9176195	-0.26030648
1.2457840685859514e-11	0.17993116	0.9627482	-0.1748376	0.17993113	0.9627482	-0.17483762	0.17993116	0.9627482	-0.1748376
1.371855610933566e-11	0.09964783	0.9863884	-0.07635811	0.09964781	0.9863885	-0.076358125	0.09964783	0.9863885	-0.076358095
1.496656864778108e-11	0.049113967	0.9922425	0.029300407	0.04911395	0.9922425	0.029300392	0.04911398	0.9922425	0.029300418
1.621278364652426e-11	0.029912021	0.98344696	0.13784736	0.029912004	0.98344696	0.13784736	0.029912036	0.9834471	0.13784738
1.7458433250806752e-11	0.04203409	0.961661	0.24453238	0.042034067	0.96166104	0.24453235	0.042034116	0.96166116	0.24453238
1.8716595243200118e-11	0.083997026	0.92677176	0.34579408	0.083997004	0.92677176	0.34579408	0.083997056	0.92677164	0.34579408
1.9978463777308837e-11	0.15209146	0.87801826	0.43640622	0.15209143	0.8780182	0.43640622	0.15209149	0.8780182	0.43640628
2.1271336035204397e-11	0.24299128	0.81258553	0.51366425	0.24299124	0.81258553	0.5136642	0.2429913	0.81258553	0.51366425
2.2577405960267174e-11	0.34911537	0.7299216	0.5718745	0.34911537	0.72992164	0.5718745	0.34911543	0.7299216	0.5718745
2.388649261274602e-11	0.4616928	0.6312859	0.6070805	0.4616928	0.63128597	0.6070805	0.4616928	0.63128597	0.60708046
2.5193073300692876e-11	0.572312	0.5203002	0.6170051	0.572312	0.5203002	0.61700505	0.572312	0.5203002	0.61700505
2.6493895451448285e-11	0.67409647	0.40296072	0.6010089	0.67409647	0.40296084	0.6010089	0.67409647	0.40296072	0.6010089
2.7806966563045275e-11	0.7637199	0.28526503	0.5592214	0.76371986	0.28526506	0.5592214	0.7637199	0.28526503	0.5592214
2.912443183610276e-11	0.83800733	0.17681077	0.4934116	0.8380073	0.17681077	0.4934116	0.8380073	0.17681076	0.49341154
3.045738664416809e-11	0.8968652	0.08602868	0.40594187	0.8968652	0.08602868	0.40594187	0.89686507	0.08602868	0.4059418
3.1765412570007606e-11	0.93953866	0.023335878	0.30422753	0.93953866	0.02333587	0.30422756	0.9395388	0.023335882	0.30422753
3.303589586202333e-11	0.9676188	-0.006894094	0.19548258	0.96761894	-0.006894103	0.19548261	0.96761894	-0.006894083	0.19548257
3.431461723017074e-11	0.98275006	-0.0035004697	0.08175161	0.98275006	-0.003500485	0.08175163	0.9827501	-0.0035004548	0.08175159
3.559238831471952e-11	0.98365325	0.034504294	-0.030223921	0.9836532	0.034504272	-0.030223902	0.98365325	0.034504313	-0.03022394
3.686585710210954e-11	0.96819556	0.10472604	-0.13410623	0.9681956	0.10472603	-0.13410622	0.96819556	0.104726076	-0.13410625
3.813435797469552e-11	0.9338192	0.20185705	-0.2241222	0.9338192	0.20185705	-0.2241222	0.9338191	0.20185709	-0.2241222
3.941182856060282e-11	0.87778246	0.31948155	-0.29593086	0.87778246	0.31948152	-0.2959309	0.87778234	0.31948155	-0.2959309
4.068230549704156e-11	0.80015403	0.44666514	-0.3443832	0.80015403	0.44666514	-0.3443832	0.80015403	0.4466652	-0.34438324
4.192558202874045e-11	0.7049977	0.5711257	-0.36697644	0.70499766	0.5711256	-0.36697644	0.7049977	0.5711257	-0.36697644
4.316828170659269e-11	0.5956108	0.68653214	-0.36404312	0.59561086	0.68653214	-0.36404318	0.5956108	0.68653226	-0.36404312
4.436581555939985e-11	0.48326316	0.78264827	-0.33770522	0.4832631	0.7826483	-0.3377053	0.4832631	0.7826484	-0.33770525
4.5576041592069595e-11	0.37061575	0.8606614	-0.28961945	0.37061578	0.8606615	-0.28961948	0.37061572	0.8606616	-0.28961945
4.68051460635721e-11	0.2653683	0.91866505	-0.22181883	0.26536834	0.91866505	-0.22181885	0.26536828	0.91866505	-0.2218188
4.8032399351695085e-11	0.17701784	0.9558481	-0.13898331	0.17701785	0.9558481	-0.13898332	0.17701784	0.9558481	-0.13898328
4.9266819014372916e-11	0.11103137	0.9743428	-0.044842534	0.111031376	0.9743427	-0.044842564	0.11103137	0.9743427	-0.044842515
5.0469406792190415e-11	0.07258712	0.97644556	0.05288765	0.07258712	0.97644556	0.05288763	0.07258711	0.9764458	0.05288767
5.165383451792046e-11	0.061270595	0.96505755	0.15074609	0.061270595	0.96505755	0.15074608	0.061270587	0.96505755	0.15074612
5.283828234830702e-11	0.07603828	0.94145995	0.24621561	0.07603827	0.94145995	0.24621558	0.076038286	0.94146	0.24621563
5.400362200440649e-11	0.114180125	0.9067	0.33416444	0.11418011	0.9067	0.33416444	0.11418015	0.90670013	0.33416447
5.517477807582939e-11	0.17291555	0.86009026	0.4132054	0.17291553	0.8600904	0.4132054	0.1729156	0.8600904	0.4132054
5.634570703558001e-11	0.24782081	0.8015461	0.47982985	0.24782081	0.8015461	0.47982985	0.24782082	0.801546	0.47982985
5.751894025468394e-11	0.33407488	0.7310575	0.5315222	0.33407485	0.7310575	0.5315222	0.33407488	0.73105747	0.5315222
5.870307482265164e-11	0.42706004	0.64891815	0.56627196	0.42705998	0.64891815	0.566272	0.42705998	0.64891803	0.56627196
5.985667893730502e-11	0.51830685	0.5603571	0.5818675	0.51830685	0.5603571	0.5818676	0.518307	0.5603571	0.5818676
6.097262930915305e-11	0.6030653	0.46967667	0.57914305	0.60306525	0.46967667	0.57914305	0.6030654	0.46967667	0.57914305
6.20835298223413e-11	0.6808845	0.37829113	0.55906445	0.6808845	0.37829116	0.5590645	0.68088454	0.3782911	0.55906445
6.319776278350237e-11	0.75021785	0.28986907	0.52221394	0.7502178	0.2898691	0.5222139	0.75021785	0.289869	0.52221394
6.430473265738807e-11	0.80923635	0.20980175	0.47034782	0.8092362	0.20980176	0.47034788	0.80923635	0.20980172	0.47034782
6.54428800191848e-11	0.85917175	0.14023726	0.40316954	0.85917175	0.14023727	0.40316957	0.85917187	0.14023724	0.40316954
6.66044951112781e-11	0.89889497	0.08701964	0.32284865	0.8988949	0.08701967	0.32284868	0.8988949	0.08701963	0.32284862
6.774697252948438e-11	0.92702705	0.05576385	0.2354966	0.92702705	0.05576386	0.23549661	0.92702705	0.05576384	0.23549655
6.886922415056186e-11	0.94406193	0.047733318	0.14513606	0.9440619	0.047733314	0.14513607	0.9440619	0.047733314	0.14513603
7.00025844842751e-11	0.9501842	0.06339808	0.05309204	0.9501842	0.06339807	0.05309207	0.95018435	0.06339808	0.053092003
7.112606096866284e-11	0.94444406	0.10198943	-0.035051875	0.944444	0.10198941	-0.035051838	0.944444	0.10198945	-0.035051905
7.224489871960814e-11	0.9259879	0.16120546	-0.115972355	0.9259879	0.16120544	-0.115972325	0.9259879	0.16120549	-0.115972385
7.334671924141488e-11	0.8944373	0.23641308	-0.18554842	0.8944373	0.23641305	-0.1855484	0.8944373	0.23641308	-0.18554845
7.444279414751846e-11	0.84940183	0.3234144	-0.24190673	0.84940183	0.3234144	-0.24190673	0.84940183	0.3234144	-0.24190679
7.554658853056881e-11	0.7906314	0.41809636	-0.28343743	0.7906314	0.4180963	-0.28343743	0.7906314	0.41809636	-0.28343746
7.663227032239462e-11	0.72106755	0.51283896	-0.30792886	0.72106755	0.51283884	-0.30792886	0.72106755	0.51283896	-0.30792886
7.77264736083514e-11	0.641654	0.60493946	-0.31555933	0.641654	0.60493946	-0.3155593	0.6416541	0.6049396	-0.31555933
7.879215699234485e-11	0.5586351	0.68733436	-0.30668622	0.5586351	0.6873343	-0.30668622	0.55863506	0.6873344	-0.30668622
7.985776586892783e-11	0.47388086	0.7595452	-0.2825429	0.47388095	0.7595452	-0.28254288	0.47388092	0.75954515	-0.28254288
8.093538320635759e-11	0.39057478	0.8203012	-0.24399094	0.3905748	0.8203012	-0.24399094	0.39057475	0.8203012	-0.24399097
8.203755757673104e-11	0.31216687	0.86872065	-0.19178768	0.31216687	0.86872053	-0.19178769	0.3121668	0.8687207	-0.19178768
8.31306208971464e-11	0.24510257	0.90292835	-0.12954968	0.2451026	0.90292835	-0.12954971	0.24510255	0.90292835	-0.12954968
8.423574631018637e-11	0.19143116	0.92402	-0.058601715	0.1914312	0.92401993	-0.05860173	0.19143113	0.92401993	-0.058601696
8.534274991986744e-11	0.15438639	0.9323567	0.017823422	0.15438642	0.9323567	0.017823398	0.15438637	0.93235683	0.017823447
8.644205376404399e-11	0.13565268	0.92884237	0.09626258	0.13565269	0.92884225	0.09626256	0.13565265	0.92884237	0.09626261
8.75369374039893e-11	0.13536489	0.9144236	0.17419879	0.1353649	0.9144236	0.17419876	0.13536486	0.91442364	0.17419882
8.861938023611264e-11	0.15262398	0.8900238	0.24849442	0.15262398	0.890024	0.24849442	0.15262395	0.8900239	0.24849443
8.971115537288871e-11	0.18631285	0.8556016	0.3181854	0.18631285	0.8556016	0.3181854	0.18631284	0.8556016	0.31818545
9.07689223487984e-11	0.23247306	0.8131753	0.37849277	0.23247305	0.8131753	0.37849277	0.23247302	0.8131753	0.37849277
9.187696858621417e-11	0.2922368	0.7595945	0.43194145	0.2922368	0.7595945	0.43194145	0.2922368	0.75959456	0.4319415
9.295859709347166e-11	0.3585852	0.698996	0.472716	0.35858518	0.698996	0.47271594	0.35858518	0.69899595	0.472716
9.405283633097413e-11	0.43026987	0.6305607	0.5010276	0.43026987	0.63056076	0.5010275	0.4302699	0.6305607	0.50102764
9.511221519844152e-11	0.50083816	0.5591753	0.5150455	0.50083816	0.55917525	0.5150455	0.50083816	0.5591752	0.5150455
9.619620103579315e-11	0.57131094	0.48323956	0.5152043	0.5713109	0.48323956	0.5152043	0.57131094	0.4832395	0.5152043
9.729605209995586e-11	0.63855183	0.40616694	0.5006615	0.6385517	0.40616694	0.50066143	0.63855183	0.40616694	0.5006615
9.840810967386163e-11	0.7002912	0.3316978	0.47142825	0.70029116	0.33169785	0.47142825	0.7002912	0.3316978	0.47142825
9.947011358372748e-11	0.7522557	0.2672258	0.430894	0.75225574	0.26722583	0.43089396	0.75225574	0.26722577	0.43089396
1.0057845053046555e-10	0.7985283	0.21030517	0.3770348	0.7985284	0.21030517	0.3770348	0.79852843	0.21030514	0.3770348
1.0166054637069804e-10	0.8354869	0.16794689	0.31507072	0.8354869	0.16794692	0.31507075	0.8354869	0.16794685	0.31507072
1.0272540179716055e-10	0.86360586	0.14135341	0.24735805	0.86360586	0.14135344	0.24735808	0.8636061	0.14135337	0.24735804
1.0374257900404664e-10	0.8824105	0.13138255	0.17878988	0.8824105	0.13138258	0.1787899	0.8824105	0.13138252	0.17878988
1.0478121707053798e-10	0.8928962	0.13742563	0.10738852	0.8928962	0.13742568	0.107388556	0.8928962	0.13742562	0.10738851
1.0579450790755681e-10	0.89393365	0.15892068	0.038902886	0.89393365	0.15892069	0.038902912	0.89393365	0.15892066	0.038902864
1.06822641854362e-10	0.88498324	0.1953833	-0.026856858	0.88498324	0.1953833	-0.02685683	0.88498324	0.19538324	-0.02685689
1.078690248509077e-10	0.864964	0.24560663	-0.0874386	0.8649639	0.24560663	-0.08743856	0.864964	0.24560662	-0.08743862
1.0890326636638172e-10	0.83420134	0.30543816	-0.13884012	0.83420134	0.3054382	-0.13884011	0.83420134	0.30543813	-0.13884015
1.0994814234902049e-10	0.7924821	0.37278247	-0.18042883	0.792482	0.37278244	-0.1804288	0.7924821	0.37278244	-0.18042888
1.1097977732122033e-10	0.74193656	0.44254714	-0.21006346	0.7419367	0.44254708	-0.21006341	0.7419366	0.44254714	-0.2100635
1.1199340383401011e-10	0.68498784	0.51102126	-0.22747132	0.68498784	0.51102126	-0.22747128	0.6849879	0.51102126	-0.22747135
1.1298148392322288e-10	0.6247031	0.5750798	-0.23313606	0.62470305	0.5750798	-0.23313598	0.6247031	0.5750798	-0.23313609
1.1396294153792939e-10	0.5625761	0.6341257	-0.2279882	0.56257606	0.6341257	-0.22798817	0.5625761	0.63412577	-0.22798824
1.1492346524762654e-10	0.50199974	0.68621415	-0.21312216	0.5019998	0.6862141	-0.2131221	0.50199974	0.68621415	-0.21312217
1.1587767298525115e-10	0.44427547	0.73164517	-0.18950845	0.44427553	0.73164505	-0.18950841	0.44427544	0.7316452	-0.18950848
1.168077329569952e-10	0.39225882	0.76953065	-0.15890068	0.39225882	0.7695306	-0.15890066	0.39225876	0.76953065	-0.15890071
1.177469772863934e-10	0.34558088	0.8012508	-0.12138176	0.3455809	0.8012508	-0.12138176	0.34558085	0.80125093	-0.1213818
1.187053124887828e-10	0.30535048	0.8267789	-0.07736913	0.30535048	0.8267789	-0.07736911	0.30535042	0.826779	-0.07736914
1.1964238422682277e-10	0.27423975	0.8449702	-0.02988629	0.27423975	0.8449701	-0.029886287	0.2742397	0.84497035	-0.0298863
1.2057911873722615e-10	0.25198707	0.8562948	0.02078506	0.25198713	0.85629475	0.02078506	0.25198704	0.85629493	0.020785058
1.214935074004348e-10	0.23923703	0.8605026	0.07216185	0.23923707	0.86050254	0.072161846	0.23923698	0.8605027	0.07216187
1.2241001832807797e-10	0.23555334	0.8576762	0.12435242	0.23555338	0.8576762	0.12435241	0.23555326	0.8576762	0.12435243
1.2334287015834734e-10	0.24110773	0.84732515	0.17691442	0.24110779	0.84732515	0.1769144	0.2411077	0.84732515	0.17691445
1.2428531063118537e-10	0.2559107	0.8290698	0.22810356	0.25591072	0.8290698	0.22810352	0.25591063	0.8290699	0.2281036
1.2522311168404572e-10	0.2791542	0.80314904	0.27578646	0.27915424	0.80314904	0.27578646	0.27915415	0.80314904	0.2757865
1.2616411881100667e-10	0.3100336	0.769615	0.319053	0.3100336	0.769615	0.3190529	0.3100335	0.769615	0.319053
1.2714949239708196e-10	0.34909907	0.7270016	0.35809556	0.3490991	0.7270016	0.35809556	0.34909904	0.72700167	0.3580956
1.281321016857625e-10	0.39323643	0.67783356	0.38940474	0.39323646	0.6778335	0.3894047	0.3932364	0.6778336	0.38940477
1.2912021176005595e-10	0.4409999	0.6230496	0.41216093	0.4409999	0.6230496	0.41216078	0.4409998	0.62304956	0.41216093
1.30101956151706e-10	0.49001202	0.5650555	0.42533985	0.490012	0.56505543	0.42533976	0.490012	0.5650555	0.42533985
1.3108203253453516e-10	0.5388655	0.50564754	0.42868644	0.5388655	0.50564754	0.42868632	0.53886545	0.50564754	0.42868638
1.3205635439312887e-10	0.58602077	0.4472837	0.4222138	0.58602077	0.44728374	0.4222138	0.58602077	0.4472837	0.42221385
1.330608313703671e-10	0.6320777	0.39021337	0.4055921	0.63207763	0.39021337	0.40559205	0.6320777	0.39021334	0.4055921
1.3408132821276565e-10	0.6753813	0.3378776	0.37903404	0.6753812	0.3378776	0.37903398	0.6753813	0.3378776	0.37903404
1.3508773478809733e-10	0.71403706	0.29403037	0.3443132	0.71403706	0.29403043	0.3443132	0.71403706	0.29403037	0.34431326
1.3608359757248778e-10	0.7478218	0.2600351	0.30290633	0.7478218	0.26003513	0.3029063	0.74782187	0.26003504	0.30290636
1.3705694378304977e-10	0.77602375	0.23713736	0.25710624	0.7760237	0.2371374	0.25710624	0.77602375	0.23713735	0.2571063
1.3803074597556846e-10	0.7988266	0.22526756	0.20759849	0.79882663	0.2252676	0.20759848	0.79882663	0.2252675	0.20759849
1.390126133890719e-10	0.81553257	0.22481151	0.15566388	0.81553257	0.22481152	0.15566388	0.8155327	0.22481143	0.15566392
1.399751386940444e-10	0.8248995	0.2354091	0.10451545	0.8248995	0.23540914	0.10451543	0.8248995	0.23540905	0.104515456
1.409280408806722e-10	0.82648885	0.25601324	0.055326857	0.82648885	0.2560133	0.05532685	0.82648885	0.2560132	0.055326857
1.418924973517768e-10	0.8196149	0.28597224	0.0086424565	0.81961477	0.2859723	0.008642461	0.8196149	0.28597218	0.008642455
1.4287470821890562e-10	0.80344045	0.3242643	-0.034132082	0.80344045	0.32426435	-0.034132075	0.8034406	0.32426423	-0.034132097
1.4384437791702453e-10	0.77845	0.36779776	-0.07029667	0.77845	0.36779785	-0.07029665	0.7784501	0.36779773	-0.07029669
1.448146956636722e-10	0.74507344	0.4148926	-0.09939523	0.7450733	0.4148926	-0.0993952	0.74507344	0.41489258	-0.09939526
1.457848693108498e-10	0.7044984	0.46333328	-0.12066275	0.70449835	0.46333328	-0.120662704	0.7044984	0.46333322	-0.12066277
1.4672372334967157e-10	0.6599582	0.5095982	-0.13340864	0.659958	0.5095983	-0.13340859	0.6599581	0.5095982	-0.13340867
1.4768165826704005e-10	0.61114544	0.5545725	-0.13838345	0.61114544	0.5545726	-0.13838339	0.6111455	0.55457246	-0.13838348
1.4861712714141643e-10	0.56232584	0.5951582	-0.13559192	0.56232584	0.59515834	-0.13559188	0.5623259	0.59515834	-0.13559197
1.495245257100232e-10	0.51592356	0.6306918	-0.12603906	0.51592356	0.63069177	-0.126039	0.5159236	0.63069177	-0.12603912
1.5039757176431677e-10	0.47390762	0.6610244	-0.11098083	0.47390765	0.66102445	-0.11098079	0.47390765	0.6610244	-0.110980906
1.512427113747164e-10	0.43707728	0.68675125	-0.09147928	0.43707728	0.68675125	-0.09147922	0.43707722	0.68675125	-0.09147933
1.5207181749107374e-10	0.4056608	0.7086109	-0.06822786	0.4056608	0.7086109	-0.068227805	0.4056608	0.70861095	-0.06822792
1.5290642439574117e-10	0.37950355	0.7273705	-0.041327048	0.37950358	0.72737056	-0.041326992	0.37950355	0.7273706	-0.041327104
1.53727896867185e-10	0.35956845	0.74274707	-0.012058774	0.35956848	0.74274707	-0.012058722	0.35956845	0.7427471	-0.012058828
1.5454924362206358e-10	0.34559137	0.7550483	0.019334966	0.34559137	0.75504816	0.019335017	0.34559137	0.7550482	0.01933492
1.553664865138505e-10	0.33756277	0.7640908	0.05205341	0.33756277	0.7640907	0.05205346	0.33756274	0.76409084	0.05205337
1.5618586667083154e-10	0.33519208	0.76966304	0.085707046	0.3351921	0.769663	0.08570708	0.33519205	0.769663	0.08570701
1.5699977961987275e-10	0.33813184	0.77132523	0.11934783	0.33813184	0.77132523	0.119347855	0.33813176	0.77132523	0.119347796
1.5781660283202434e-10	0.34596252	0.76863444	0.15268123	0.34596258	0.7686343	0.15268126	0.3459625	0.76863444	0.1526812
1.586401453571322e-10	0.35831684	0.76101875	0.18519486	0.3583169	0.7610187	0.18519486	0.35831675	0.7610188	0.18519484
1.5944452479848773e-10	0.37419465	0.74844617	0.21524641	0.37419468	0.7484461	0.21524641	0.37419456	0.7484463	0.21524641
1.6024369298572525e-10	0.39317495	0.7307137	0.24280782	0.39317504	0.7307137	0.24280784	0.3931749	0.7307138	0.24280784
1.6105425904657258e-10	0.41513315	0.707389	0.26780465	0.41513324	0.707389	0.2678046	0.4151331	0.70738906	0.26780465
1.6188622621649338e-10	0.43989214	0.678127	0.28974158	0.4398923	0.67812693	0.28974155	0.4398921	0.678127	0.28974158
1.626965689859189e-10	0.46555257	0.6449939	0.30693585	0.46555266	0.6449939	0.30693585	0.46555248	0.64499396	0.30693588
1.6350407026412615e-10	0.49203318	0.6082435	0.31951946	0.4920333	0.60824347	0.3195194	0.49203315	0.6082436	0.31951946
1.6432544434978394e-10	0.5193082	0.56811386	0.32730797	0.51930827	0.56811386	0.32730794	0.51930815	0.5681139	0.327308
1.6517626926102925e-10	0.54734194	0.5249938	0.32981282	0.54734194	0.5249937	0.32981282	0.54734194	0.5249938	0.32981285
1.6605699055223924e-10	0.5755867	0.4803527	0.3263659	0.5755867	0.4803527	0.3263659	0.5755867	0.48035273	0.32636595
1.6693646224371458e-10	0.6025709	0.4375369	0.31691173	0.60257095	0.43753687	0.31691164	0.6025709	0.43753695	0.31691176
1.6781932801201298e-10	0.62811404	0.3980617	0.30170012	0.62811404	0.39806166	0.30170006	0.62811404	0.3980617	0.30170017
1.6871485645818011e-10	0.6522085	0.3632212	0.28093937	0.6522085	0.36322117	0.2809393	0.6522085	0.3632212	0.28093943
1.6960677616549917e-10	0.67419565	0.33508736	0.25562507	0.6741957	0.33508733	0.255625	0.67419565	0.33508736	0.25562516
1.7048133175831396e-10	0.6936002	0.3148654	0.22712314	0.6936002	0.3148654	0.22712307	0.6936002	0.31486538	0.22712319
1.7132849847819564e-10	0.71010506	0.3028379	0.19689077	0.71010506	0.3028379	0.1968907	0.71010506	0.30283785	0.19689085
1.7216575311206316e-10	0.72386515	0.2985255	0.1653462	0.72386515	0.2985255	0.16534613	0.72386515	0.29852548	0.16534626
1.730119469634788e-10	0.73476094	0.3017732	0.1326867	0.73476094	0.30177325	0.13268664	0.73476106	0.30177316	0.13268678
1.7386597630627414e-10	0.74215937	0.31245685	0.099864386	0.7421593	0.3124569	0.09986433	0.74215937	0.31245682	0.09986444
1.7472327412790485e-10	0.7453634	0.33002663	0.06798846	0.7453634	0.3300267	0.06798841	0.74536353	0.33002657	0.067988515
1.7561036957534822e-10	0.7436097	0.35447428	0.037085213	0.74360967	0.35447437	0.03708517	0.7436098	0.35447422	0.037085257
